## X [m] Internal-energy [J]
0.005 0.5
0.015 0.5
0.025 0.5
0.035 0.5
0.045 0.5
0.055 0.5
0.065 0.5
0.075 0.5
0.085 0.5
0.095 0.5
0.105 0.5
0.115 0.5
0.125 0.5
0.135 0.5
0.145 0.5
0.155 0.5
0.165 0.5
0.175 0.5
0.185 0.5
0.195 0.5
0.205 0.490791
0.215 0.462607
0.225 0.435256
0.235 0.408739
0.245 0.383056
0.255 0.358205
0.265 0.334188
0.275 0.319559
0.285 0.319559
0.295 0.319559
0.305 0.319559
0.315 0.319559
0.325 0.319559
0.335 0.319559
0.345 0.319559
0.355 0.319559
0.365 0.319559
0.375 0.319559
0.385 0.319559
0.395 0.319559
0.405 0.319559
0.415 1.29514
0.425 1.29514
0.435 1.29514
0.445 1.29514
0.455 1.29514
0.465 1.29514
0.475 1.29514
0.485 1.29514
0.495 1.29514
0.505 1.29514
0.515 1.29514
0.525 1.29514
0.535 1.29514
0.545 1.29514
0.555 1.29514
0.565 1.29514
0.575 1.29514
0.585 1.29514
0.595 1.29514
0.605 0.4
0.615 0.4
0.625 0.4
0.635 0.4
0.645 0.4
0.655 0.4
0.665 0.4
0.675 0.4
0.685 0.4
0.695 0.4
0.705 0.4
0.715 0.4
0.725 0.4
0.735 0.4
0.745 0.4
0.755 0.4
0.765 0.4
0.775 0.4
0.785 0.4
0.795 0.4
0.805 0.4
0.815 0.4
0.825 0.4
0.835 0.4
0.845 0.4
0.855 0.4
0.865 0.4
0.875 0.4
0.885 0.4
0.895 0.4
0.905 0.4
0.915 0.4
0.925 0.4
0.935 0.4
0.945 0.4
0.955 0.4
0.965 0.4
0.975 0.4
0.985 0.4
0.995 0.4
