## X [m] Pressure [Pa]
0.005 1
0.015 1
0.025 1
0.035 1
0.045 1
0.055 1
0.065 1
0.075 1
0.085 1
0.095 1
0.105 1
0.115 1
0.125 1
0.135 1
0.145 1
0.155 1
0.165 1
0.175 1
0.185 1
0.195 1
0.205 0.972499
0.215 0.889945
0.225 0.812199
0.235 0.739119
0.245 0.67056
0.255 0.606377
0.265 0.546426
0.275 0.510942
0.285 0.510942
0.295 0.510942
0.305 0.510942
0.315 0.510942
0.325 0.510942
0.335 0.510942
0.345 0.510942
0.355 0.510942
0.365 0.510942
0.375 0.510942
0.385 0.510942
0.395 0.510942
0.405 0.510942
0.415 0.510942
0.425 0.510942
0.435 0.510942
0.445 0.510942
0.455 0.510942
0.465 0.510942
0.475 0.510942
0.485 0.510942
0.495 0.510942
0.505 0.510942
0.515 0.510942
0.525 0.510942
0.535 0.510942
0.545 0.510942
0.555 0.510942
0.565 0.510942
0.575 0.510942
0.585 0.510942
0.595 0.510942
0.605 0.1
0.615 0.1
0.625 0.1
0.635 0.1
0.645 0.1
0.655 0.1
0.665 0.1
0.675 0.1
0.685 0.1
0.695 0.1
0.705 0.1
0.715 0.1
0.725 0.1
0.735 0.1
0.745 0.1
0.755 0.1
0.765 0.1
0.775 0.1
0.785 0.1
0.795 0.1
0.805 0.1
0.815 0.1
0.825 0.1
0.835 0.1
0.845 0.1
0.855 0.1
0.865 0.1
0.875 0.1
0.885 0.1
0.895 0.1
0.905 0.1
0.915 0.1
0.925 0.1
0.935 0.1
0.945 0.1
0.955 0.1
0.965 0.1
0.975 0.1
0.985 0.1
0.995 0.1
